frame,x,y,radius,x_axis,y_axis,z_axis,angle
76,1034.0,696.0,57.0,0.028722976260748132,-0.9524732880238497,0.3032649439611529,0.6161602544234414
77,1059.0,668.0,55.0,0.033148832694393754,-0.934712500409018,0.35385547398637285,0.6161602544234414
78,1077.0,641.0,53.0,0.037865698659268594,-0.9159570414588424,0.39948577830382137,0.6161602544234414
79,1094.0,616.0,52.0,0.04294784644587887,-0.896261733795577,0.44144126112021675,0.6161602544234414
80,1110.0,594.0,50.0,0.04846365035763223,-0.8756825075935163,0.4804491861672204,0.6161602544234414
81,1129.0,572.0,49.0,0.054474035757417084,-0.854276464104973,0.5169567702473817,0.6161602544234414
84,1168.0,516.0,44.0,0.061030734744988706,-0.8321020371881422,0.5512544322940455,0.6161602544234414
85,1179.0,500.0,43.0,0.06817466334200138,-0.8092200217928516,0.583536778282039,0.6161602544234414
86,1194.0,484.0,42.0,0.07593460520154405,-0.7856934497637719,0.6139378948486476,0.6161602544234414
87,1204.0,469.0,41.0,0.08432605057805338,-0.7615883622385564,0.6425513860359349,0.6161602544234414
88,1214.0,455.0,40.0,0.09335046294347449,-0.7369741515884412,0.6694436428548235,0.6161602544234414
89,1223.0,442.0,39.0,0.10299506198739256,-0.7119237481166766,0.6946629355836657,0.6161602544234414
90,1231.0,430.0,38.0,0.1132332304903475,-0.6865136367405886,0.7182459621062488,0.6161602544234414
91,1242.0,419.0,37.0,0.1240256245804832,-0.6608236993495483,0.7402227251479103,0.6146467296614023
92,1250.0,408.0,36.0,0.13532202622826398,-0.6349368875993491,0.7606202061364978,0.6129895306593649
93,1258.0,397.0,35.0,0.14706392619683809,-0.6089387379588118,0.7794650826205755,0.611042418862111
94,1265.0,388.0,34.0,0.15918776898066142,-0.5829167455941716,0.7967856185404323,0.6086591557144232
95,1272.0,377.0,33.0,0.1716283412349129,-0.5569596830513198,0.8126128376664533,0.6058913139432655
96,1279.0,367.0,33.0,0.18432378132269833,-0.5311565892506154,0.8269809074788579,0.6029851110390294
97,1285.0,359.0,32.0,0.19721933936958627,-0.5055959398431853,0.8399269478905355,0.5999261727773261
98,1291.0,350.0,31.0,0.2102722112746019,-0.480364620585353,0.8514901223476283,0.5967001249337659
99,1297.0,341.0,31.0,0.22345375183522673,-0.455546946089118,0.8617107407359149,0.5932925932839599
100,1302.0,334.0,30.0,0.2367534667077307,-0.43122354607043967,0.8706285369296751,0.5896794082083757
101,1308.0,328.0,29.0,0.25018119766632113,-0.4074702863343819,0.8782808970305696,0.5858364000874812
102,1313.0,319.0,29.0,0.2637682231784023,-0.3843572039690538,0.8847010027113114,0.581705426615812
103,1318.0,311.0,28.0,0.2775671427916704,-0.36194748300471674,0.8899160077159073,0.5772283454879049
104,1320.0,304.0,28.0,0.291650486627399,-0.3402965009386238,0.8939453479374064,0.5724888288360991
106,1329.0,292.0,27.0,0.30610807084118646,-0.3194509802420085,0.8967992641546418,0.5676560795062806
107,1334.0,287.0,26.0,0.3210432005270049,-0.29944828133405976,0.8984775958261035,0.5625668025957148
108,1335.0,281.0,26.0,0.33656789739235726,-0.2803158736482923,0.8989688879075195,0.5577064652870606
109,1339.0,275.0,26.0,0.35279722774897,-0.2620712485015752,0.8982498409693525,0.5535360354987191
110,1343.0,270.0,25.0,0.3698431069269341,-0.2447215332185851,0.8962853604950698,0.5491120880240851
111,1344.0,264.0,25.0,0.3878092397080118,-0.22826367913653123,0.8930283793834038,0.5446281512307659
112,1348.0,260.0,24.0,0.40678476343504644,-0.21268504448103928,0.8884206369120382,0.540277753486369
113,1349.0,254.0,24.0,0.4268379340876324,-0.19796364561353744,0.8823943410058792,0.5361465084492589
114,1353.0,249.0,24.0,0.4480128353725174,-0.1840698103582832,0.8748730217901014,0.5321606647077008
115,1354.0,245.0,23.0,0.47032553544582584,-0.1709669981828434,0.8657737442542046,0.5285346116791128
116,1355.0,241.0,23.0,0.4937618996990574,-0.15861307361525517,0.8550094030382939,0.5252434384145777
117,1357.0,236.0,23.0,0.518277055798842,-0.14696181679912196,0.8424910194391305,0.5221251806557108
118,1358.0,232.0,23.0,0.5437961015985036,-0.1359641879137608,0.8281301464692742,0.5191505971368424
119,1359.0,229.0,22.0,0.570215191147999,-0.1255695401020994,0.811841688004871,0.5164659264131903
120,1359.0,225.0,22.0,0.5974049567533084,-0.11572696731648445,0.7935455794611341,0.5142174070399722
121,1360.0,221.0,22.0,0.6252144820967978,-0.10638638749422118,0.77316802050548,0.5123534662902239
122,1360.0,217.0,22.0,0.6534759676083625,-0.09749943338823751,0.7506417389456085,0.510627886673554
123,1360.0,214.0,21.0,0.6820097938446902,-0.08902012766011166,0.725904992386263,0.5090550424143515
124,1359.0,210.0,21.0,0.710629675707973,-0.08090533452755531,0.6988989847239482,0.5076493077370057
125,1360.0,207.0,21.0,0.739147608600206,-0.0731149953454657,0.6695632980952804,0.5076493077370057
126,1359.0,204.0,21.0,0.7673783362324443,-0.06561216870214177,0.6378287641674114,0.5076493077370057
127,1357.0,200.0,21.0,0.7951431165168539,-0.0583629059188632,0.6036068219201726,0.5076493077370057
128,1357.0,198.0,21.0,0.8222726232204752,-0.051335999603506245,0.5667736305147119,0.5076493077370057
129,1356.0,196.0,20.0,0.848609114205725,-0.04450265145130117,0.5271452222118481,0.5076493077370057
130,1354.0,193.0,20.0,0.8740068986488206,-0.03783607291897295,0.4844382031800757,0.5076493077370057
131,1350.0,190.0,20.0,0.8983333992141087,-0.03131110265234441,0.43819712311597747,0.5076493077370057
132,1350.0,187.0,20.0,0.9214680670577591,-0.024903820026605673,0.3876550027291273,0.5076493077370057
133,1346.0,185.0,20.0,0.9433010427094908,-0.018591228024694522,0.3314174242005408,0.5076493077370057
134,1344.0,182.0,20.0,0.963729283670131,-0.01235097491783124,0.26659580119580895,0.5076493077370057
135,1341.0,180.0,20.0,0.9826584727440584,-0.006161125974169102,0.1853223312799758,0.5076493077370057
137,1335.0,177.0,19.0,1.0,-0.0,0.0,0.5076493077370057
